 LCModel (Version 6.3-1N) Copyright: S.W. Provencher.          Ref.: Magn. Reson. Med. 30:672-679 (1993).                
 mrs_sub-01_ses-01_press_sub-01_PRESS_35_act_LCM_A
 32 lines in following concentration table = NCONC+1
    Conc.  %SD /Cr+PCr  Metabolite                                         
    0.000 999%   0.000 Asc                                                 
    4.538  14%   0.422 Asp                                                 
    3.193  12%   0.297 Cr                                                  
    0.000 999%   0.000 GABA                                                
    1.747   3%   0.163 GPC                                                 
    1.478   9%   0.138 GSH                                                 
    1.648  31%   0.153 Gln                                                 
   12.533   5%   1.167 Glu                                                 
    9.204   4%   0.857 mI                                                  
    0.312 111% 2.9E-02 Lac                                                 
   13.291   2%   1.237 NAA                                                 
    1.092  19%   0.102 NAAG                                                
    0.000 999%   0.000 PCh                                                 
    7.549   6%   0.703 PCr                                                 
    7.180  10%   0.668 PE                                                  
    0.414  16% 3.8E-02 sI                                                  
    1.021  53% 9.5E-02 Tau                                                 
    0.000 999%   0.000 -CrCH2                                              
    1.747   3%   0.163 PCh+GPC                                             
   10.742   2%   1.000 Cr+PCr                                              
   14.383   2%   1.339 NAA+NAAG                                            
   14.180   6%   1.320 Glu+Gln                                             
   34.815  23%   3.241 Lip13a                                              
    0.000 999%   0.000 Lip13b                                              
    9.482  29%   0.883 Lip09                                               
    8.416  26%   0.783 MM09                                                
    6.662  14%   0.620 Lip20                                               
   12.175  23%   1.133 MM20                                                
    5.259  27%   0.490 MM12                                                
   13.596  29%   1.266 MM14                                                
    8.881  28%   0.827 MM17                                                
   6 lines in following misc. output table
  FWHM = 0.038 ppm    S/N =  41                                            
  Data shift =-0.004 ppm                                                   
  Ph: -17 deg      -3.5 deg/ppm                                            
  alphaB,S = 2.6E-02,   9.0E+01                                            
   26 spline knots.   Ns = 6(2)                                            
  ( 5) 4 infls.   ( 3) 1 extrs.                                            
  917 points on ppm-axis = NY
      4.000000     3.996178     3.992356     3.988534     3.984712     3.980890     3.977067     3.973245     3.969423     3.965601
      3.961779     3.957957     3.954135     3.950313     3.946491     3.942669     3.938847     3.935024     3.931202     3.927380
      3.923558     3.919736     3.915914     3.912092     3.908270     3.904448     3.900626     3.896804     3.892982     3.889159
      3.885337     3.881515     3.877693     3.873871     3.870049     3.866227     3.862405     3.858583     3.854761     3.850939
      3.847116     3.843294     3.839472     3.835650     3.831828     3.828006     3.824184     3.820362     3.816540     3.812718
      3.808896     3.805073     3.801251     3.797429     3.793607     3.789785     3.785963     3.782141     3.778319     3.774497
      3.770675     3.766853     3.763031     3.759208     3.755386     3.751564     3.747742     3.743920     3.740098     3.736276
      3.732454     3.728632     3.724810     3.720988     3.717165     3.713343     3.709521     3.705699     3.701877     3.698055
      3.694233     3.690411     3.686589     3.682767     3.678945     3.675122     3.671300     3.667478     3.663656     3.659834
      3.656012     3.652190     3.648368     3.644546     3.640724     3.636902     3.633080     3.629257     3.625435     3.621613
      3.617791     3.613969     3.610147     3.606325     3.602503     3.598681     3.594859     3.591037     3.587214     3.583392
      3.579570     3.575748     3.571926     3.568104     3.564282     3.560460     3.556638     3.552816     3.548994     3.545171
      3.541349     3.537527     3.533705     3.529883     3.526061     3.522239     3.518417     3.514595     3.510773     3.506951
      3.503129     3.499306     3.495484     3.491662     3.487840     3.484018     3.480196     3.476374     3.472552     3.468730
      3.464908     3.461086     3.457263     3.453441     3.449619     3.445797     3.441975     3.438153     3.434331     3.430509
      3.426687     3.422865     3.419043     3.415220     3.411398     3.407576     3.403754     3.399932     3.396110     3.392288
      3.388466     3.384644     3.380822     3.377000     3.373178     3.369355     3.365533     3.361711     3.357889     3.354067
      3.350245     3.346423     3.342601     3.338779     3.334957     3.331135     3.327312     3.323490     3.319668     3.315846
      3.312024     3.308202     3.304380     3.300558     3.296736     3.292914     3.289092     3.285269     3.281447     3.277625
      3.273803     3.269981     3.266159     3.262337     3.258515     3.254693     3.250871     3.247049     3.243227     3.239404
      3.235582     3.231760     3.227938     3.224116     3.220294     3.216472     3.212650     3.208828     3.205006     3.201184
      3.197361     3.193539     3.189717     3.185895     3.182073     3.178251     3.174429     3.170607     3.166785     3.162963
      3.159141     3.155318     3.151496     3.147674     3.143852     3.140030     3.136208     3.132386     3.128564     3.124742
      3.120920     3.117098     3.113276     3.109453     3.105631     3.101809     3.097987     3.094165     3.090343     3.086521
      3.082699     3.078877     3.075055     3.071233     3.067410     3.063588     3.059766     3.055944     3.052122     3.048300
      3.044478     3.040656     3.036834     3.033012     3.029190     3.025367     3.021545     3.017723     3.013901     3.010079
      3.006257     3.002435     2.998613     2.994791     2.990969     2.987147     2.983325     2.979502     2.975680     2.971858
      2.968036     2.964214     2.960392     2.956570     2.952748     2.948926     2.945104     2.941282     2.937459     2.933637
      2.929815     2.925993     2.922171     2.918349     2.914527     2.910705     2.906883     2.903061     2.899239     2.895416
      2.891594     2.887772     2.883950     2.880128     2.876306     2.872484     2.868662     2.864840     2.861018     2.857196
      2.853374     2.849551     2.845729     2.841907     2.838085     2.834263     2.830441     2.826619     2.822797     2.818975
      2.815153     2.811331     2.807508     2.803686     2.799864     2.796042     2.792220     2.788398     2.784576     2.780754
      2.776932     2.773110     2.769288     2.765465     2.761643     2.757821     2.753999     2.750177     2.746355     2.742533
      2.738711     2.734889     2.731067     2.727245     2.723423     2.719600     2.715778     2.711956     2.708134     2.704312
      2.700490     2.696668     2.692846     2.689024     2.685202     2.681380     2.677557     2.673735     2.669913     2.666091
      2.662269     2.658447     2.654625     2.650803     2.646981     2.643159     2.639337     2.635514     2.631692     2.627870
      2.624048     2.620226     2.616404     2.612582     2.608760     2.604938     2.601116     2.597294     2.593472     2.589649
      2.585827     2.582005     2.578183     2.574361     2.570539     2.566717     2.562895     2.559073     2.555251     2.551429
      2.547606     2.543784     2.539962     2.536140     2.532318     2.528496     2.524674     2.520852     2.517030     2.513208
      2.509386     2.505563     2.501741     2.497919     2.494097     2.490275     2.486453     2.482631     2.478809     2.474987
      2.471165     2.467343     2.463521     2.459698     2.455876     2.452054     2.448232     2.444410     2.440588     2.436766
      2.432944     2.429122     2.425300     2.421478     2.417655     2.413833     2.410011     2.406189     2.402367     2.398545
      2.394723     2.390901     2.387079     2.383257     2.379435     2.375612     2.371790     2.367968     2.364146     2.360324
      2.356502     2.352680     2.348858     2.345036     2.341214     2.337392     2.333570     2.329747     2.325925     2.322103
      2.318281     2.314459     2.310637     2.306815     2.302993     2.299171     2.295349     2.291527     2.287704     2.283882
      2.280060     2.276238     2.272416     2.268594     2.264772     2.260950     2.257128     2.253306     2.249484     2.245661
      2.241839     2.238017     2.234195     2.230373     2.226551     2.222729     2.218907     2.215085     2.211263     2.207441
      2.203619     2.199796     2.195974     2.192152     2.188330     2.184508     2.180686     2.176864     2.173042     2.169220
      2.165398     2.161576     2.157753     2.153931     2.150109     2.146287     2.142465     2.138643     2.134821     2.130999
      2.127177     2.123355     2.119533     2.115710     2.111888     2.108066     2.104244     2.100422     2.096600     2.092778
      2.088956     2.085134     2.081312     2.077490     2.073668     2.069845     2.066023     2.062201     2.058379     2.054557
      2.050735     2.046913     2.043091     2.039269     2.035447     2.031625     2.027802     2.023980     2.020158     2.016336
      2.012514     2.008692     2.004870     2.001048     1.997226     1.993404     1.989582     1.985759     1.981937     1.978115
      1.974293     1.970471     1.966649     1.962827     1.959005     1.955183     1.951361     1.947539     1.943717     1.939894
      1.936072     1.932250     1.928428     1.924606     1.920784     1.916962     1.913140     1.909318     1.905496     1.901674
      1.897851     1.894029     1.890207     1.886385     1.882563     1.878741     1.874919     1.871097     1.867275     1.863453
      1.859631     1.855808     1.851986     1.848164     1.844342     1.840520     1.836698     1.832876     1.829054     1.825232
      1.821410     1.817588     1.813766     1.809943     1.806121     1.802299     1.798477     1.794655     1.790833     1.787011
      1.783189     1.779367     1.775545     1.771723     1.767900     1.764078     1.760256     1.756434     1.752612     1.748790
      1.744968     1.741146     1.737324     1.733502     1.729680     1.725857     1.722035     1.718213     1.714391     1.710569
      1.706747     1.702925     1.699103     1.695281     1.691459     1.687637     1.683815     1.679992     1.676170     1.672348
      1.668526     1.664704     1.660882     1.657060     1.653238     1.649416     1.645594     1.641772     1.637949     1.634127
      1.630305     1.626483     1.622661     1.618839     1.615017     1.611195     1.607373     1.603551     1.599729     1.595906
      1.592084     1.588262     1.584440     1.580618     1.576796     1.572974     1.569152     1.565330     1.561508     1.557686
      1.553864     1.550041     1.546219     1.542397     1.538575     1.534753     1.530931     1.527109     1.523287     1.519465
      1.515643     1.511821     1.507998     1.504176     1.500354     1.496532     1.492710     1.488888     1.485066     1.481244
      1.477422     1.473600     1.469778     1.465955     1.462133     1.458311     1.454489     1.450667     1.446845     1.443023
      1.439201     1.435379     1.431557     1.427735     1.423913     1.420090     1.416268     1.412446     1.408624     1.404802
      1.400980     1.397158     1.393336     1.389514     1.385692     1.381870     1.378047     1.374225     1.370403     1.366581
      1.362759     1.358937     1.355115     1.351293     1.347471     1.343649     1.339827     1.336004     1.332182     1.328360
      1.324538     1.320716     1.316894     1.313072     1.309250     1.305428     1.301606     1.297784     1.293962     1.290139
      1.286317     1.282495     1.278673     1.274851     1.271029     1.267207     1.263385     1.259563     1.255741     1.251919
      1.248096     1.244274     1.240452     1.236630     1.232808     1.228986     1.225164     1.221342     1.217520     1.213698
      1.209876     1.206053     1.202231     1.198409     1.194587     1.190765     1.186943     1.183121     1.179299     1.175477
      1.171655     1.167833     1.164011     1.160188     1.156366     1.152544     1.148722     1.144900     1.141078     1.137256
      1.133434     1.129612     1.125790     1.121968     1.118145     1.114323     1.110501     1.106679     1.102857     1.099035
      1.095213     1.091391     1.087569     1.083747     1.079925     1.076102     1.072280     1.068458     1.064636     1.060814
      1.056992     1.053170     1.049348     1.045526     1.041704     1.037882     1.034060     1.030237     1.026415     1.022593
      1.018771     1.014949     1.011127     1.007305     1.003483     0.999661     0.995839     0.992016     0.988194     0.984372
      0.980550     0.976728     0.972906     0.969083     0.965261     0.961439     0.957617     0.953795     0.949973     0.946151
      0.942328     0.938506     0.934684     0.930862     0.927040     0.923218     0.919396     0.915573     0.911751     0.907929
      0.904107     0.900285     0.896463     0.892641     0.888818     0.884996     0.881174     0.877352     0.873530     0.869708
      0.865885     0.862063     0.858241     0.854419     0.850597     0.846775     0.842953     0.839130     0.835308     0.831486
      0.827664     0.823842     0.820020     0.816198     0.812375     0.808553     0.804731     0.800909     0.797087     0.793265
      0.789443     0.785620     0.781798     0.777976     0.774154     0.770332     0.766510     0.762688     0.758865     0.755043
      0.751221     0.747399     0.743577     0.739755     0.735932     0.732110     0.728288     0.724466     0.720644     0.716822
      0.713000     0.709177     0.705355     0.701533     0.697711     0.693889     0.690067     0.686245     0.682422     0.678600
      0.674778     0.670956     0.667134     0.663312     0.659490     0.655667     0.651845     0.648023     0.644201     0.640379
      0.636557     0.632734     0.628912     0.625090     0.621268     0.617446     0.613624     0.609802     0.605979     0.602157
      0.598335     0.594513     0.590691     0.586869     0.583047     0.579224     0.575402     0.571580     0.567758     0.563936
      0.560114     0.556292     0.552469     0.548647     0.544825     0.541003     0.537181     0.533359     0.529536     0.525714
      0.521892     0.518070     0.514248     0.510426     0.506604     0.502781     0.498959
 NY phased data points follow
   4.79390E-01  4.84240E-01  4.97087E-01  4.94706E-01  4.68352E-01  4.85986E-01  4.91960E-01  4.72689E-01  4.87818E-01  5.00265E-01
   5.08857E-01  5.06028E-01  4.97244E-01  5.22925E-01  4.89116E-01  4.89204E-01  5.24866E-01  5.65956E-01  5.77762E-01  6.16265E-01
   6.68913E-01  6.75496E-01  7.49902E-01  7.75729E-01  8.09649E-01  8.25276E-01  8.95190E-01  9.46053E-01  9.61772E-01  9.22005E-01
   8.93033E-01  8.45025E-01  8.48755E-01  8.18358E-01  7.79581E-01  7.57937E-01  6.82513E-01  5.86529E-01  5.06431E-01  5.22040E-01
   5.13233E-01  5.23053E-01  4.81934E-01  4.14523E-01  3.67455E-01  3.64737E-01  3.83381E-01  3.34471E-01  3.48309E-01  2.83858E-01
   3.07433E-01  3.02900E-01  2.93941E-01  2.81626E-01  2.51999E-01  2.35588E-01  3.03981E-01  3.32676E-01  3.12798E-01  3.16842E-01
   3.28952E-01  3.01274E-01  2.99753E-01  3.40140E-01  3.14848E-01  3.13267E-01  3.90844E-01  3.66459E-01  3.75361E-01  4.02571E-01
   3.49110E-01  3.87661E-01  3.68481E-01  3.88619E-01  3.43934E-01  3.33534E-01  3.29442E-01  3.30938E-01  3.03820E-01  2.95420E-01
   3.00950E-01  2.65528E-01  3.02015E-01  2.99465E-01  3.13343E-01  2.82611E-01  2.91032E-01  3.08542E-01  2.95442E-01  2.88922E-01
   2.58984E-01  2.34833E-01  2.26431E-01  2.56653E-01  2.34584E-01  2.24894E-01  2.44617E-01  2.68562E-01  2.98596E-01  3.41470E-01
   3.52150E-01  3.65691E-01  3.70423E-01  3.60138E-01  3.53938E-01  3.82219E-01  3.20721E-01  2.79355E-01  2.81455E-01  2.66965E-01
   2.69092E-01  2.32410E-01  2.16620E-01  2.11061E-01  2.32880E-01  2.59039E-01  2.93328E-01  2.86745E-01  3.00223E-01  3.52651E-01
   4.02738E-01  4.47261E-01  4.84022E-01  4.85690E-01  4.75620E-01  4.87998E-01  4.85366E-01  4.78067E-01  4.95488E-01  4.61006E-01
   4.31496E-01  3.94930E-01  3.73483E-01  3.41397E-01  3.37846E-01  3.39060E-01  3.28508E-01  3.14135E-01  2.96141E-01  2.91927E-01
   2.65168E-01  2.63816E-01  3.00112E-01  2.97901E-01  2.80292E-01  2.76094E-01  2.84913E-01  2.89174E-01  2.79012E-01  2.75217E-01
   2.60016E-01  2.84584E-01  2.59278E-01  2.69140E-01  2.46299E-01  2.48935E-01  2.55511E-01  2.61671E-01  2.83836E-01  2.73313E-01
   2.38176E-01  2.42176E-01  2.45922E-01  2.35133E-01  2.61710E-01  2.47759E-01  2.41558E-01  2.43949E-01  2.09878E-01  2.32560E-01
   2.40471E-01  2.72665E-01  2.62160E-01  2.76484E-01  2.57135E-01  2.49944E-01  2.74944E-01  3.05392E-01  3.06842E-01  2.73879E-01
   2.74216E-01  2.77390E-01  2.46329E-01  2.54011E-01  2.49214E-01  2.47595E-01  2.31624E-01  2.13346E-01  2.18044E-01  2.06209E-01
   2.27109E-01  2.41575E-01  2.83424E-01  2.97844E-01  3.18000E-01  3.06766E-01  3.36097E-01  3.38563E-01  3.39187E-01  3.44568E-01
   3.58011E-01  3.52346E-01  3.69122E-01  3.67555E-01  3.93030E-01  3.80179E-01  3.99542E-01  4.16998E-01  4.37966E-01  4.89685E-01
   5.62570E-01  6.27845E-01  6.70038E-01  6.92475E-01  6.99564E-01  6.96844E-01  6.73571E-01  6.69832E-01  6.42845E-01  6.17413E-01
   5.71094E-01  5.19733E-01  4.69355E-01  4.48078E-01  3.86979E-01  3.71852E-01  3.63722E-01  3.50039E-01  3.20988E-01  2.92089E-01
   2.76482E-01  2.76408E-01  2.51322E-01  2.55346E-01  2.32747E-01  2.18917E-01  2.33861E-01  2.36933E-01  2.49141E-01  2.37817E-01
   2.19587E-01  2.27036E-01  2.28643E-01  2.45431E-01  2.45263E-01  2.23766E-01  2.36728E-01  2.46282E-01  2.46383E-01  2.51183E-01
   2.69713E-01  2.82468E-01  3.03352E-01  3.57339E-01  3.86171E-01  4.54393E-01  5.24379E-01  6.10261E-01  6.91363E-01  7.87792E-01
   8.70742E-01  9.32006E-01  9.55664E-01  9.52397E-01  9.36941E-01  8.99966E-01  8.33436E-01  7.44393E-01  6.92204E-01  6.35579E-01
   5.87858E-01  5.21035E-01  4.67452E-01  4.21136E-01  3.86167E-01  3.69459E-01  3.40147E-01  3.08373E-01  2.88122E-01  2.63858E-01
   2.28692E-01  2.43694E-01  2.21138E-01  2.19084E-01  2.08460E-01  1.98619E-01  1.85980E-01  1.82129E-01  1.69929E-01  1.72323E-01
   1.69881E-01  1.52205E-01  1.78100E-01  1.72344E-01  1.55186E-01  1.66687E-01  1.41037E-01  1.54495E-01  1.44507E-01  1.41463E-01
   1.32763E-01  1.24333E-01  1.26853E-01  1.59432E-01  1.36365E-01  1.34712E-01  1.24683E-01  1.41419E-01  1.37877E-01  1.35148E-01
   1.24099E-01  1.18450E-01  1.38440E-01  1.10473E-01  1.23734E-01  1.18597E-01  1.29108E-01  1.29014E-01  1.10528E-01  1.38614E-01
   1.31623E-01  1.51190E-01  1.62948E-01  1.58802E-01  1.66563E-01  1.86739E-01  1.79352E-01  1.79403E-01  1.85431E-01  1.85504E-01
   1.93657E-01  1.63773E-01  1.70720E-01  1.61905E-01  1.62916E-01  1.72065E-01  1.90417E-01  1.78565E-01  1.74554E-01  1.88066E-01
   1.54252E-01  1.29448E-01  1.41608E-01  1.36834E-01  1.19647E-01  1.13133E-01  1.17278E-01  1.11749E-01  1.19384E-01  1.07750E-01
   8.29622E-02  9.83124E-02  1.16925E-01  1.00650E-01  1.07697E-01  8.14949E-02  1.11740E-01  1.06008E-01  1.30160E-01  1.41652E-01
   1.46151E-01  1.77021E-01  1.71182E-01  1.89752E-01  1.77545E-01  1.70248E-01  1.66892E-01  1.76372E-01  1.88260E-01  2.11977E-01
   2.33129E-01  2.31132E-01  2.53912E-01  2.38967E-01  2.51504E-01  2.51328E-01  2.32764E-01  2.28898E-01  2.37253E-01  2.59207E-01
   2.32634E-01  2.13494E-01  1.93869E-01  2.04393E-01  1.91131E-01  1.86908E-01  1.54441E-01  1.70829E-01  1.58977E-01  1.67062E-01
   1.56044E-01  1.56816E-01  1.46598E-01  1.70609E-01  1.52038E-01  1.81435E-01  1.75482E-01  1.90593E-01  2.02584E-01  2.00750E-01
   2.09959E-01  2.34239E-01  2.40716E-01  2.45531E-01  2.48319E-01  2.37029E-01  2.66179E-01  2.68459E-01  2.75349E-01  3.01261E-01
   2.95617E-01  3.23232E-01  3.02159E-01  3.26759E-01  3.40471E-01  3.31061E-01  3.58156E-01  3.58632E-01  3.23591E-01  3.31299E-01
   3.33438E-01  3.21892E-01  3.05572E-01  3.14053E-01  2.99230E-01  2.66751E-01  2.58415E-01  2.64612E-01  2.61503E-01  2.85586E-01
   2.77516E-01  3.19860E-01  3.30192E-01  3.64325E-01  3.71806E-01  4.12926E-01  4.38337E-01  4.48810E-01  4.72228E-01  4.90476E-01
   4.61961E-01  4.69443E-01  4.34393E-01  4.01199E-01  3.83259E-01  3.56497E-01  3.42705E-01  3.23969E-01  2.91358E-01  3.12727E-01
   3.04030E-01  3.19018E-01  3.40280E-01  3.45075E-01  3.52024E-01  3.75003E-01  3.69958E-01  3.83171E-01  3.84775E-01  3.63870E-01
   3.69635E-01  3.58965E-01  3.52095E-01  3.59011E-01  3.31332E-01  3.39150E-01  3.14967E-01  3.32238E-01  3.15256E-01  3.03696E-01
   3.20118E-01  3.17830E-01  3.01117E-01  3.02124E-01  2.93563E-01  2.99426E-01  2.82146E-01  3.05138E-01  2.96883E-01  2.87169E-01
   3.06032E-01  2.84364E-01  2.86680E-01  3.01332E-01  3.17849E-01  3.20132E-01  3.24211E-01  3.08081E-01  2.95440E-01  3.02889E-01
   2.97775E-01  2.93360E-01  3.19098E-01  3.01247E-01  3.20433E-01  3.27182E-01  3.35417E-01  3.52334E-01  3.65844E-01  3.85147E-01
   4.01442E-01  4.07583E-01  4.04006E-01  3.99942E-01  4.21228E-01  4.22428E-01  4.43906E-01  4.21505E-01  4.20560E-01  4.21236E-01
   4.60629E-01  4.53558E-01  4.84281E-01  4.77366E-01  4.88907E-01  5.16550E-01  5.49651E-01  5.75079E-01  6.02292E-01  6.47852E-01
   6.87722E-01  7.74814E-01  8.45511E-01  9.34758E-01  1.06965E+00  1.17216E+00  1.25383E+00  1.32964E+00  1.38657E+00  1.39468E+00
   1.32423E+00  1.26581E+00  1.15637E+00  1.04806E+00  9.33331E-01  8.22142E-01  7.36254E-01  6.55254E-01  5.64916E-01  5.10248E-01
   4.70988E-01  4.13566E-01  3.77913E-01  3.41899E-01  3.15993E-01  2.67873E-01  2.34781E-01  2.33451E-01  1.95655E-01  1.82603E-01
   1.77083E-01  1.64434E-01  1.46307E-01  1.47695E-01  1.21312E-01  1.09859E-01  1.34241E-01  1.23431E-01  1.14379E-01  1.14314E-01
   9.11605E-02  9.76781E-02  9.91242E-02  8.82945E-02  9.61927E-02  9.62924E-02  1.09795E-01  7.73214E-02  8.05206E-02  9.57108E-02
   7.36305E-02  7.54500E-02  6.87498E-02  6.24124E-02  6.34886E-02  6.51042E-02  6.51609E-02  8.74882E-02  6.62332E-02  7.40464E-02
   6.10714E-02  4.03361E-02  5.72747E-02  5.93444E-02  5.60805E-02  6.59956E-02  4.06135E-02  5.37040E-02  5.45709E-02  3.64720E-02
   5.96566E-02  4.39925E-02  4.64728E-02  5.68550E-02  3.42991E-02  5.30369E-02  3.98748E-02  2.80243E-02  2.66186E-02  1.70883E-02
   2.66752E-02  4.10480E-02  4.01226E-02  3.40614E-02  4.52946E-02  3.48317E-02  3.11351E-02  3.53547E-02  4.20053E-02  2.63580E-02
   3.52938E-02  2.09240E-02  4.06872E-02  4.27879E-02  4.91367E-02  3.86322E-02  3.50351E-02  2.67639E-02  1.30766E-02  3.49858E-02
   4.77182E-02  1.22309E-02  3.75165E-02  4.50836E-02  3.19276E-02  3.89361E-02  3.24992E-02  3.56884E-02  3.19985E-02  4.19712E-02
   3.20854E-02  4.94785E-02  4.80518E-02  5.04744E-02  3.64785E-02  6.17090E-02  3.89911E-02  3.91202E-02  6.00908E-02  4.64400E-02
   4.37368E-02  2.29981E-02  4.73723E-02  3.63896E-02  1.78932E-02  3.89731E-02  2.38284E-02  2.81423E-02  2.61503E-02  2.69285E-02
   2.78419E-02  2.20495E-02  3.53632E-02  2.17292E-02  3.01532E-02  5.01244E-03  3.43886E-02  8.40616E-03  2.55521E-02  1.87408E-02
   2.54723E-02 -7.15834E-03  3.88502E-03  3.03380E-02  2.52586E-02 -1.20719E-02  8.08196E-03 -5.64440E-03  9.60467E-03  1.38177E-02
  -2.24994E-04 -1.74359E-03  2.42449E-03  3.19705E-02  4.72563E-03  1.05010E-02  2.63102E-02  1.66408E-02  9.73293E-03  2.56359E-02
   1.71209E-02  3.13274E-02  2.75686E-02  1.29723E-02  3.57877E-02  2.98248E-02  4.05419E-02  3.30471E-02  3.71516E-02  2.54656E-02
   1.66970E-02  2.63425E-02  3.03740E-02  2.86504E-02  3.43068E-02  2.52030E-02  2.07176E-02  3.02640E-02  3.77851E-02  4.39502E-02
   3.79194E-02  2.76862E-02  8.18495E-03  1.92382E-02  2.65173E-03  1.04576E-02 -3.22235E-03 -2.00885E-02 -2.67450E-02 -2.07890E-02
  -3.51001E-02 -5.22886E-02 -3.70877E-02 -5.11237E-02 -5.31346E-02 -5.85379E-02 -4.68101E-02 -7.05344E-02 -6.41162E-02 -6.41255E-02
  -5.39915E-02 -8.13707E-02 -9.46384E-02 -8.92719E-02 -9.68907E-02 -1.18506E-01 -1.07681E-01 -1.16057E-01 -1.28496E-01 -1.29238E-01
  -1.29738E-01 -1.58250E-01 -1.55221E-01 -1.80459E-01 -1.61906E-01 -1.90246E-01 -1.87812E-01 -1.92167E-01 -2.02690E-01 -2.10065E-01
  -2.19202E-01 -2.33598E-01 -2.38165E-01 -2.54114E-01 -2.45691E-01 -2.63017E-01 -2.85263E-01 -2.69108E-01 -2.94864E-01 -3.00904E-01
  -3.06942E-01 -3.12554E-01 -3.31463E-01 -3.33158E-01 -3.31497E-01 -3.31141E-01 -3.51240E-01 -3.55852E-01 -3.48296E-01 -3.56834E-01
  -3.70105E-01 -3.87122E-01 -3.70211E-01 -3.83920E-01 -3.80534E-01 -3.90955E-01 -3.98835E-01 -4.04886E-01 -3.95035E-01 -3.93192E-01
  -3.87499E-01 -4.09308E-01 -4.07256E-01 -4.08003E-01 -4.07699E-01 -4.10149E-01 -4.16426E-01 -4.00697E-01 -3.91873E-01 -4.04388E-01
  -4.01491E-01 -3.79367E-01 -3.88526E-01 -3.88248E-01 -3.93133E-01 -3.73739E-01 -3.62712E-01 -3.70961E-01 -3.63562E-01 -3.52567E-01
  -3.40980E-01 -3.37062E-01 -3.31695E-01 -3.05067E-01 -3.15569E-01 -2.98680E-01 -2.93401E-01 -2.99150E-01 -2.71435E-01 -2.86235E-01
  -2.69886E-01 -2.46960E-01 -2.51873E-01 -2.42583E-01 -2.48012E-01 -2.37411E-01 -2.24971E-01 -2.09497E-01 -2.07532E-01 -1.86933E-01
  -1.98198E-01 -1.91920E-01 -1.84592E-01 -1.80632E-01 -1.65967E-01 -1.64333E-01 -1.46242E-01 -1.42907E-01 -1.18298E-01 -1.25461E-01
  -1.26689E-01 -1.15459E-01 -1.03083E-01 -1.05995E-01 -1.12679E-01 -1.04632E-01 -1.01582E-01 -1.14131E-01 -1.15249E-01 -1.01624E-01
  -1.10584E-01 -9.89245E-02 -1.15681E-01 -1.14500E-01 -1.14677E-01 -9.88677E-02 -1.03750E-01 -1.28671E-01 -1.08367E-01 -1.03554E-01
  -1.25119E-01 -1.29328E-01 -1.15519E-01 -1.39628E-01 -1.18538E-01 -1.37184E-01 -1.25287E-01 -1.53349E-01 -1.41779E-01 -1.38516E-01
  -1.24561E-01 -1.34930E-01 -1.36958E-01 -1.36431E-01 -1.43821E-01 -1.40788E-01 -1.36537E-01 -1.38006E-01 -1.39565E-01 -1.46137E-01
  -1.31829E-01 -1.35509E-01 -1.26133E-01 -1.47259E-01 -1.33152E-01 -1.11859E-01 -1.37472E-01 -1.37058E-01 -1.43604E-01 -1.31025E-01
  -1.62081E-01 -1.20532E-01 -1.47894E-01 -1.35608E-01 -1.33767E-01 -1.13830E-01 -1.36207E-01 -1.40476E-01 -1.33472E-01 -1.27001E-01
  -1.14147E-01 -1.33990E-01 -1.40904E-01 -1.10312E-01 -1.37033E-01 -1.48758E-01 -1.14615E-01 -9.51612E-02 -1.28634E-01 -1.34791E-01
  -1.18068E-01 -1.30425E-01 -1.35040E-01 -1.23592E-01 -1.11898E-01 -1.28862E-01 -9.96741E-02 -1.31786E-01 -1.35709E-01 -1.01180E-01
  -1.22598E-01 -1.20444E-01 -1.21066E-01 -1.24594E-01 -1.10287E-01 -1.19027E-01 -1.24289E-01 -9.99521E-02 -1.13872E-01 -1.16577E-01
  -1.32641E-01 -1.17414E-01 -9.71224E-02 -1.16188E-01 -9.89914E-02 -1.09472E-01 -1.01171E-01
 NY points of the fit to the data follow
   5.30534E-01  5.22522E-01  5.15292E-01  5.08233E-01  5.02893E-01  4.97263E-01  4.91508E-01  4.84063E-01  4.77028E-01  4.71810E-01
   4.69869E-01  4.70821E-01  4.74976E-01  4.81576E-01  4.92100E-01  5.06992E-01  5.26427E-01  5.48815E-01  5.75312E-01  6.05802E-01
   6.42729E-01  6.83879E-01  7.29712E-01  7.74409E-01  8.18750E-01  8.57520E-01  8.90859E-01  9.14295E-01  9.24988E-01  9.23500E-01
   9.06932E-01  8.80905E-01  8.43637E-01  8.02423E-01  7.54961E-01  7.07898E-01  6.60017E-01  6.16681E-01  5.75863E-01  5.38709E-01
   5.02477E-01  4.67433E-01  4.34582E-01  4.07265E-01  3.85297E-01  3.66237E-01  3.49102E-01  3.34098E-01  3.23714E-01  3.16713E-01
   3.12327E-01  3.09353E-01  3.06971E-01  3.04922E-01  3.03267E-01  3.02554E-01  3.03167E-01  3.05330E-01  3.06588E-01  3.09292E-01
   3.11473E-01  3.16220E-01  3.20484E-01  3.27591E-01  3.32551E-01  3.41403E-01  3.47199E-01  3.56490E-01  3.61196E-01  3.68247E-01
   3.69813E-01  3.73105E-01  3.70764E-01  3.68966E-01  3.61672E-01  3.54494E-01  3.43338E-01  3.32889E-01  3.23569E-01  3.16083E-01
   3.10340E-01  3.05104E-01  3.00935E-01  2.95680E-01  2.93267E-01  2.87887E-01  2.83363E-01  2.75193E-01  2.67513E-01  2.58304E-01
   2.51331E-01  2.44801E-01  2.43316E-01  2.45696E-01  2.53755E-01  2.64896E-01  2.81317E-01  2.99092E-01  3.20338E-01  3.39119E-01
   3.57634E-01  3.68443E-01  3.74696E-01  3.71502E-01  3.63263E-01  3.47487E-01  3.29231E-01  3.06607E-01  2.85438E-01  2.64109E-01
   2.48078E-01  2.34865E-01  2.29037E-01  2.27796E-01  2.35372E-01  2.48626E-01  2.69749E-01  2.95103E-01  3.25481E-01  3.56980E-01
   3.89705E-01  4.19053E-01  4.45568E-01  4.64823E-01  4.78329E-01  4.83944E-01  4.83211E-01  4.75972E-01  4.63325E-01  4.46949E-01
   4.27085E-01  4.06142E-01  3.84901E-01  3.64933E-01  3.46689E-01  3.30232E-01  3.15538E-01  3.03372E-01  2.95166E-01  2.89883E-01
   2.87307E-01  2.86646E-01  2.87038E-01  2.87361E-01  2.87287E-01  2.86334E-01  2.85684E-01  2.84742E-01  2.83388E-01  2.81066E-01
   2.78009E-01  2.74160E-01  2.70079E-01  2.65862E-01  2.61643E-01  2.57556E-01  2.53266E-01  2.49284E-01  2.45404E-01  2.42225E-01
   2.38972E-01  2.36599E-01  2.34370E-01  2.33023E-01  2.32012E-01  2.31922E-01  2.32665E-01  2.34781E-01  2.37784E-01  2.41767E-01
   2.46115E-01  2.51484E-01  2.57299E-01  2.63827E-01  2.70508E-01  2.76978E-01  2.82002E-01  2.85354E-01  2.85663E-01  2.83388E-01
   2.77686E-01  2.70148E-01  2.60751E-01  2.51212E-01  2.42224E-01  2.34832E-01  2.29806E-01  2.27343E-01  2.28465E-01  2.32903E-01
